TIME [s]   DISTANCE [m]   
0          28429132.5230515    
5          28498565.1196396    
10         28565377.3567402    
15         28629660.1750461    
20         28691518.9739651    
25         28751058.9701871    
30         28808408.964014     
35         28863700.8481888    
40         28917077.5454326    
45         28968678.4287323    
50         29018670.9400312    
55         29067209.817661     
60         29114469.6265663    
65         29160622.6568165    
70         29205848.522259     
75         29250330.6109378    
80         29294253.9496997    
85         29337809.0241026    
90         29381180.0328179    
95         29424565.2919749    
100        29468146.9063241    
105        29512118.2073758    
110        29556665.6923984    
115        29601975.5462544    
120        29648225.190243     
125        29695587.1414704    
130        29744237.2666593    
135        29794337.2016512    
140        29846046.7573609    
145        29899507.5418631    
150        29954866.4695122    
155        30012253.4721612    
160        30071788.2266543    
165        30133581.4994899    
170        30197732.2159353    
175        30264328.1847489    
180        30333443.4713628    
185        30405143.4308243    
190        30479470.3732431    
195        30556466.7806211    
200        30636153.059989     
205        30718538.1874773    
210        30803616.8078633    
215        30891367.1551936    
220        30981759.6471553    
225        31074746.5900716    
230        31170268.6869353    
235        31268251.6500772    
240        31368609.9252508    
245        31471244.6872981    
250        31576043.489374     
255        31682883.6636177    
260        31791632.1476492    
265        31902144.3836769    
270        32014263.6503421    
275        32127826.3153121    
280        32242661.5592045    
285        32358583.6995938    
290        32475405.5230908    
295        32592933.6466699    
300        32710968.278972     
305        32829297.5981168    
310        32947710.3591935    
315        33065997.2735335    
320        33183937.1600593    
325        33301312.487707     
330        33417899.3793785    
335        33533479.8880988    
340        33647824.8965127    
345        33760719.5214799    
350        33871942.8496312    
355        33981273.2956375    
360        34088503.2142954    
365        34193412.2500561    
370        34295797.1800883    
375        34395455.0192382    
380        34492189.6378385    
385        34585803.1387117    
390        34676114.6667699    
395        34762941.446921     
400        34846113.8357413    
405        34925468.3046132    
410        35000845.3722362    
415        35072094.0533923    
420        35139083.5474747    
425        35201680.9028576    
430        35259760.2007198    
435        35313218.2003262    
440        35361952.6365385    
445        35405874.0875085    
450        35444901.8711468    
455        35478972.8551924    
460        35508020.8746047    
465        35532007.7983102    
470        35550901.0027166    
475        35564672.34373      
480        35573312.7594563    
485        35576826.3005942    
490        35575220.4810729    
495        35568528.8271401    
500        35556784.8432822    
505        35540032.5205197    
510        35518341.5678011    
515        35491781.3367627    
520        35460438.3292321    
525        35424410.8404956    
530        35383805.7007065    
535        35338745.8064946    
540        35289357.5882762    
545        35235795.0881943    
550        35178202.7474974    
555        35116752.2195437    
560        35051617.8265341    
565        34982986.3397397    
570        34911054.0478385    
575        34836026.9050131    
580        34758123.0844287    
585        34677557.0146702    
590        34594570.2394554    
595        34509401.6252456    
600        34422292.6014949    
605        34333502.4144497    
610        34243287.3761546    
615        34151914.7045768    
620        34059654.2532543    
625        33966777.6761093    
630        33873562.6560452    
635        33780288.1414854    
640        33687234.9766541    
645        33594682.0214265    
650        33502911.0634694    
655        33412202.1267636    
660        33322831.98515      
665        33235075.4311864    
670        33149197.3796304    
675        33065466.5015463    
680        32984137.1913347    
685        32905464.7298147    
690        32829684.8371769    
695        32757034.1843398    
700        32687734.0084127    
705        32621997.7764374    
710        32560015.1715929    
715        32501980.2719359    
720        32448055.6795939    
725        32398403.8625068    
730        32353161.2487031    
735        32312449.026997     
740        32276379.9479572    
745        32245035.2591431    
750        32218487.119633     
755        32196789.7518408    
760        32179974.3451498    
765        32168055.7744123    
770        32161029.4124324    
775        32158864.7822741    
780        32161526.5057417    
785        32168949.4823091    
790        32181054.1797356    
795        32197741.247562     
800        32218891.7516856    
805        32244373.9477385    
810        32274041.9313307    
815        32307721.4473621    
820        32345243.2972837    
825        32386400.6615099    
830        32430994.7245772    
835        32478804.1391641    
840        32529592.2234121    
845        32583125.1328626    
850        32639144.7429197    
855        32697391.0570152    
860        32757605.2667626    
865        32819510.1765504    
870        32882823.5302961    
875        32947271.460281     
880        33012564.8480211    
885        33078417.7593834    
890        33144542.3853838    
895        33210653.4710323    
900        33276457.5838481    
905        33341672.1605925    
910        33406012.5742219    
915        33469204.3449194    
920        33530972.0792552    
925        33591038.130295     
930        33649144.1225488    
935        33705031.3039013    
940        33758447.7664727    
945        33809150.4863032    
950        33856901.1106352    
955        33901476.2948038    
960        33942657.0672764    
965        33980233.7731105    
970        34014010.2864868    
975        34043798.0670308    
980        34069422.7218345    
985        34090710.8796526    
990        34107513.8616242    
995        34119688.4226374    
1000       34127100.7236395    
1005       34129632.6019774    
1010       34127177.633075     
1015       34119640.0691618    
1020       34106940.0305886    
1025       34089000.0740203    
1030       34065770.8145049    
1035       34037205.0555635    
1040       34003270.7944759    
1045       33963949.1227591    
1050       33919235.0319553    
1055       33869129.3935326    
1060       33813658.0187415    
1065       33752847.2077894    
1070       33686743.0341782    
1075       33615404.2995047    
1080       33538891.6593606    
1085       33457294.585879     
1090       33370699.5129567    
1095       33279215.0620662    
1100       33182954.2633657    
1105       33082044.7980641    
1110       32976626.8119594    
1115       32866843.6968641    
1120       32752860.0561818    
1125       32634846.9483563    
1130       32512975.2857085    
1135       32387442.1204112    
1140       32258441.2790421    
1145       32126180.5157159    
1150       31990874.493784     
1155       31852744.6769724    
1160       31712021.6779011    
1165       31568938.7925752    
1170       31423741.5118169    
1175       31276675.0722211    
1180       31127993.704797     
1185       30977955.2899543    
1190       30826817.2696474    
1195       30674839.2838362    
1200       30522293.8226549    
1205       30369445.5421177    
1210       30216557.1368811    
1215       30063900.3678678    
1220       29911735.4559522    
1225       29760329.0096452    
1230       29609941.1215945    
1235       29460826.5271237    
1240       29313238.8202164    
1245       29167422.6962455    
1250       29023615.717865     
1255       28882053.255378     
1260       28742954.1611943    
1265       28606534.6925232    
1270       28472997.5906888    
1275       28342535.60794      
1280       28215330.9395       
1285       28091544.1200384    
1290       27971336.4703459    
1295       27854842.5352945    
1300       27742187.8846831    
1305       27633479.3241129    
1310       27528815.9744488    
1315       27428273.7289597    
1320       27331904.9633103    
1325       27239758.8251763    
1330       27151861.0751903    
1335       27068218.2465626    
1340       26988824.91177      
1345       26913647.6699158    
1350       26842650.8907224    
1355       26775772.5879161    
1360       26712938.3749759    
1365       26654055.3313234    
1370       26599017.2524773    
1375       26547704.5239537    
1380       26499981.8443304    
1385       26455705.8309705    
1390       26414707.4123468    
1395       26376825.5526031    
1400       26341878.5346072    
1405       26309670.1811734    
1410       26280009.7362947    
1415       26252689.9035101    
1420       26227501.780329     
1425       26204226.4849625    
1430       26182648.3160478    
1435       26162545.9610234    
1440       26143695.0795071    
