TIME [s]   DISTANCE [m]   
0          27282689.7743673    
5          27091276.4895852    
10         26900772.528411     
15         26711633.4776963    
20         26524321.2961536    
25         26339301.296695     
30         26157042.4818963    
35         25978001.0051736    
40         25802647.7607198    
45         25631438.0090937    
50         25464821.4873681    
55         25303234.4395079    
60         25147103.0529179    
65         24996844.8731829    
70         24852853.2694108    
75         24715493.2902452    
80         24585123.9925726    
85         24462065.1078245    
90         24346616.3614143    
95         24239041.0887925    
100        24139572.2567609    
105        24048408.0579544    
110        23965711.5460557    
115        23891605.0835875    
120        23826175.6151013    
125        23769460.2266331    
130        23721463.4611388    
135        23682150.5748062    
140        23651439.9955045    
145        23629209.9269415    
150        23615301.764831     
155        23609511.2101075    
160        23611603.6267358    
165        23621309.041857     
170        23638315.3767288    
175        23662287.8491782    
180        23692857.8069554    
185        23729629.9206998    
190        23772186.16071      
195        23820087.9797998    
200        23872876.020156     
205        23930077.9913955    
210        23991207.2132696    
215        24055766.4352412    
220        24123253.8797726    
225        24193162.1529799    
230        24264978.6771401    
235        24338201.5723156    
240        24412319.2798352    
245        24486833.5572836    
250        24561249.0000036    
255        24635083.2424565    
260        24707861.8375727    
265        24779121.4284337    
270        24848420.1948182    
275        24915317.0885115    
280        24979405.4277857    
285        25040286.5949449    
290        25097575.3787998    
295        25150917.689226     
300        25199975.6331555    
305        25244430.5505565    
310        25283988.0888058    
315        25318373.2258669    
320        25347338.7702691    
325        25370658.0385183    
330        25388126.8959877    
335        25399572.2971159    
340        25404832.7847492    
345        25403787.3150671    
350        25396333.3328887    
355        25382385.3191018    
360        25361898.7960758    
365        25334846.1682154    
370        25301223.4325531    
375        25261059.1318061    
380        25214403.3918138    
385        25161335.018208     
390        25101957.8218356    
395        25036395.7149413    
400        24964812.1909801    
405        24887386.5526911    
410        24804327.0130566    
415        24715862.2111463    
420        24622256.5537066    
425        24523794.6170936    
430        24420781.644759     
435        24313551.6855953    
440        24202461.1126173    
445        24087897.7158466    
450        23970260.9987038    
455        23849978.2158402    
460        23727497.2882502    
465        23603291.4709553    
470        23477841.1268786    
475        23351654.9605813    
480        23225256.0113855    
485        23099182.7863622    
490        22973983.6104943    
495        22850223.8270148    
500        22728473.5725654    
505        22609310.9466471    
510        22493315.4223788    
515        22381073.6311034    
520        22273165.6607168    
525        22170169.0682578    
530        22072653.0910652    
535        21981170.9882228    
540        21896269.7985973    
545        21818464.7560764    
550        21748260.5961346    
555        21686128.9737097    
560        21632512.8501575    
565        21587817.6742408    
570        21552419.4932032    
575        21526645.2578281    
580        21510785.9308837    
585        21505082.437212     
590        21509731.5862266    
595        21524875.0148792    
600        21550609.5952489    
605        21586978.0041295    
610        21633972.1797281    
615        21691534.0039945    
620        21759559.7215098    
625        21837884.4326307    
630        21926307.6970868    
635        22024585.1128744    
640        22132423.2873248    
645        22249492.7480976    
650        22375431.9534864    
655        22509843.1124564    
660        22652304.7462978    
665        22802356.5977037    
670        22959537.3126917    
675        23123350.0409215    
680        23293293.6082245    
685        23468850.895895     
690        23649498.8026524    
695        23834708.2480202    
700        24023949.7484364    
705        24216694.9095056    
710        24412412.6983392    
715        24610588.1797597    
720        24810707.2300466    
725        25012266.7292068    
730        25214775.0768266    
735        25417755.1045995    
740        25620741.0871591    
745        25823285.5984425    
750        26024959.0699121    
755        26225340.7089844    
760        26424039.5802808    
765        26620681.9003877    
770        26814899.5152454    
775        27006364.170586     
780        27194755.5403071    
785        27379776.1187279    
790        27561150.3747113    
795        27738622.6943035    
800        27911958.5780617    
805        28080945.6799792    
810        28245388.5163181    
815        28405116.8117215    
820        28559978.1384906    
825        28709845.3497774    
830        28854601.6640404    
835        28994163.3846862    
840        29128452.7435517    
845        29257421.3053804    
850        29381039.6340264    
855        29499284.3789264    
860        29612169.322912     
865        29719708.2366037    
870        29821945.9692762    
875        29918936.1133351    
880        30010749.6412438    
885        30097475.726712     
890        30179213.4323528    
895        30256082.1107726    
900        30328213.0897243    
905        30395744.5701803    
910        30458834.3616651    
915        30517648.2412431    
920        30572366.8938304    
925        30623169.3915203    
930        30670257.6175221    
935        30713834.4006245    
940        30754103.2251178    
945        30791286.1143832    
950        30825601.9579758    
955        30857275.5152737    
960        30886532.7378565    
965        30913605.8251275    
970        30938718.5805881    
975        30962100.354527     
980        30983985.7507281    
985        31004588.2977676    
990        31024135.3869273    
995        31042840.8655938    
1000       31060913.3830744    
1005       31078554.1450009    
1010       31095957.3621239    
1015       31113306.7506318    
1020       31130774.1897734    
1025       31148525.1784537    
1030       31166707.5941175    
1035       31185459.7219673    
1040       31204903.6426529    
1045       31225147.3000046    
1050       31246289.0466231    
1055       31268399.1036243    
1060       31291545.2918895    
1065       31315773.4952723    
1070       31341105.0101731    
1075       31367557.9970768    
1080       31395125.9293677    
1085       31423784.0725498    
1090       31453488.3456615    
1095       31484189.6990772    
1100       31515814.8186176    
1105       31548266.8114297    
1110       31581444.6825754    
1115       31615230.2245162    
1120       31649486.9478424    
1125       31684065.2256117    
1130       31718804.2422187    
1135       31753533.3443991    
1140       31788059.8595434    
1145       31822193.621653     
1150       31855727.6410571    
1155       31888449.434354     
1160       31920140.0795677    
1165       31950565.7190624    
1170       31979500.1215037    
1175       32006704.9264754    
1180       32031940.8177393    
1185       32054964.83909      
1190       32075536.7608304    
1195       32093416.386009     
1200       32108355.3033032    
1205       32120122.3483059    
1210       32128482.5298451    
1215       32133205.4287998    
1220       32134060.5893511    
1225       32130836.0273885    
1230       32123320.8625282    
1235       32111308.4326998    
1240       32094608.0575523    
1245       32073037.0051341    
1250       32046420.836315     
1255       32014595.6070652    
1260       31977416.3217474    
1265       31934746.2184182    
1270       31886462.3722477    
1275       31832454.2029045    
1280       31772632.1861367    
1285       31706912.8554877    
1290       31635239.0650532    
1295       31557555.7240097    
1300       31473841.427576     
1305       31384081.7575956    
1310       31288276.3832659    
1315       31186452.5238664    
1320       31078648.7545234    
1325       30964924.5050465    
1330       30845352.9138198    
1335       30720033.7793636    
1340       30589080.5883839    
1345       30452623.5047828    
1350       30310815.6570783    
1355       30163832.2420313    
1360       30011854.4157852    
1365       29855099.8518644    
1370       29693787.751693     
1375       29528167.6560136    
1380       29358504.9663952    
1385       29185080.2655099    
1390       29008194.3814592    
1395       28828161.6447813    
1400       28645317.202422     
1405       28460011.8163108    
1410       28272611.3424236    
1415       28083493.3705828    
1420       27893055.5561678    
1425       27701704.6386653    
1430       27509857.9021423    
1435       27317947.2565762    
1440       27126416.9162356    
