TIME [s]   DISTANCE [m]   
0          21906219.8900468    
5          22059643.8207936    
10         22218159.0545305    
15         22381244.9018899    
20         22548371.8584161    
25         22719008.7204669    
30         22892617.7186673    
35         23068669.7098094    
40         23246633.1588667    
45         23425986.3960187    
50         23606204.9432983    
55         23786785.752917     
60         23967236.3918162    
65         24147062.7258761    
70         24325806.1161374    
75         24503003.5669763    
80         24678222.1620452    
85         24851040.4881957    
90         25021060.7873513    
95         25187891.5599564    
100        25351180.3041012    
105        25510585.115744     
110        25665781.5717768    
115        25816478.9627059    
120        25962393.5005536    
125        26103281.7268561    
130        26238911.0227675    
135        26369077.9877483    
140        26493595.7360153    
145        26612310.7300728    
150        26725085.4222972    
155        26831812.113434     
160        26932402.4692761    
165        27026790.6144445    
170        27114940.8786254    
175        27196840.7324001    
180        27272490.2891489    
185        27341929.1704958    
190        27405206.1233486    
195        27462403.2013004    
200        27513615.8350849    
205        27558964.8457816    
210        27598597.4344766    
215        27632671.6807414    
220        27661378.1439619    
225        27684914.2825101    
230        27703509.302496     
235        27717402.1481303    
240        27726852.9029244    
245        27732138.1922871    
250        27733546.8046353    
255        27731387.9240421    
260        27725981.0906495    
265        27717659.6210649    
270        27706767.205562     
275        27693660.3137822    
280        27678702.5810557    
285        27662258.0754       
290        27644712.705268     
295        27626443.1328825    
300        27607836.3933835    
305        27589277.3422123    
310        27571144.7082821    
315        27553833.0361175    
320        27537711.4723918    
325        27523157.5573402    
330        27510532.8557695    
335        27500200.0237715    
340        27492503.8829248    
345        27487772.7293315    
350        27486324.31752      
355        27488464.8046484    
360        27494476.2446097    
365        27504619.9518082    
370        27519145.1448706    
375        27538265.0525277    
380        27562184.5093804    
385        27591074.2125682    
390        27625083.5669016    
395        27664330.7187757    
400        27708912.7165255    
405        27758898.0703429    
410        27814327.9847721    
415        27875211.1600191    
420        27941532.6140877    
425        28013254.2681491    
430        28090306.6119962    
435        28172589.2103186    
440        28259985.4351867    
445        28352349.0075911    
450        28449513.4753418    
455        28551280.1157758    
460        28657437.7566612    
465        28767757.1659892    
470        28881983.3657488    
475        28999848.898752     
480        29121068.3226589    
485        29245343.6510599    
490        29372360.7326147    
495        29501801.9434913    
500        29633327.846883     
505        29766600.8614613    
510        29901277.5257929    
515        30037003.5419176    
520        30173426.6655393    
525        30310181.076382     
530        30446915.7064608    
535        30583273.4496476    
540        30718890.0672789    
545        30853417.1509727    
550        30986504.4035453    
555        31117807.7147046    
560        31246988.131617     
565        31373712.9700976    
570        31497660.3315169    
575        31618510.3077697    
580        31735962.2244881    
585        31849720.9663288    
590        31959494.3614458    
595        32065017.0624987    
600        32166023.0853437    
605        32262266.677013     
610        32353511.2358049    
615        32439537.8394299    
620        32520129.4476887    
625        32595101.595761     
630        32664272.3572637    
635        32727476.5290922    
640        32784567.9265332    
645        32835410.6794355    
650        32879889.7639929    
655        32917903.2564241    
660        32949367.2192617    
665        32974207.8551207    
670        32992380.4115649    
675        33003839.2040578    
680        33008573.438898     
685        33006575.888252     
690        32997859.6872295    
695        32982455.3144617    
700        32960410.1937691    
705        32931785.1042232    
710        32896660.1536469    
715        32855128.2327996    
720        32807300.5936116    
725        32753300.3231526    
730        32693273.3937493    
735        32627370.0453487    
740        32555764.3984734    
745        32478638.2864945    
750        32396190.3517913    
755        32308632.2824329    
760        32216185.7765803    
765        32119082.8001462    
770        32017576.227428     
775        31911917.1970905    
780        31802375.5366246    
785        31689221.555995     
790        31572745.9523581    
795        31453230.4634372    
800        31330976.2130636    
805        31206283.5692111    
810        31079460.1373031    
815        30950806.1298348    
820        30820638.4700671    
825        30689265.7739171    
830        30556994.7884902    
835        30424131.4956157    
840        30290985.6884193    
845        30157848.1820141    
850        30025014.6529828    
855        29892769.4155938    
860        29761391.1926395    
865        29631147.3582215    
870        29502285.6231259    
875        29375054.8611874    
880        29249680.8058118    
885        29126373.4365804    
890        29005333.5528854    
895        28886743.3653312    
900        28770755.6841603    
905        28657524.3709596    
910        28547160.5426311    
915        28439775.6852001    
920        28335448.6545668    
925        28234243.0467958    
930        28136192.4419445    
935        28041315.1181668    
940        27949612.4659731    
945        27861056.2792047    
950        27775600.7822765    
955        27693179.4239593    
960        27613708.6722594    
965        27537075.194743     
970        27463162.5390339    
975        27391825.823004     
980        27322909.9690153    
985        27256235.0239753    
990        27191619.8443396    
995        27128863.7338923    
1000       27067753.8675444    
1005       27008070.370344     
1010       26949579.5834212    
1015       26892049.9006696    
1020       26835236.2160833    
1025       26778890.3815162    
1030       26722764.7270998    
1035       26666611.1510968    
1040       26610173.3492072    
1045       26553208.3134635    
1050       26495469.9723575    
1055       26436715.3139241    
1060       26376710.7309655    
1065       26315229.5638687    
1070       26252050.361716     
1075       26186959.2551078    
1080       26119761.538945     
1085       26050266.1770962    
1090       25978298.4229879    
1095       25903694.912369     
1100       25826304.6145823    
1105       25745998.7159718    
1110       25662654.5624964    
1115       25576174.9376825    
1120       25486476.761294     
1125       25393485.3691454    
1130       25297164.5738486    
1135       25197473.8036214    
1140       25094411.3815808    
1145       24987984.2451374    
1150       24878221.6194229    
1155       24765176.3302659    
1160       24648917.9093218    
1165       24529536.7479021    
1170       24407143.110761     
1175       24281878.1661646    
1180       24153894.7652825    
1185       24023368.6830786    
1190       23890501.2598776    
1195       23755508.8527544    
1200       23618631.1222521    
1205       23480132.5663266    
1210       23340298.8811144    
1215       23199425.8585187    
1220       23057842.0385852    
1225       22915887.5601163    
1230       22773922.0849586    
1235       22632327.5776566    
1240       22491490.2571799    
1245       22351830.8582407    
1250       22213771.6501583    
1255       22077744.679704     
1260       21944207.356241     
1265       21813616.1539602    
1270       21686437.0622621    
1275       21563144.3944559    
1280       21444210.7240114    
1285       21330113.0257527    
1290       21221327.5263732    
1295       21118318.5091055    
1300       21021547.448077     
1305       20931468.2306746    
1310       20848505.6780675    
1315       20773084.975631     
1320       20705598.2336463    
1325       20646416.5644333    
1330       20595881.0152223    
1335       20554305.5700044    
1340       20521963.2752673    
1345       20499097.8734873    
1350       20485907.8457856    
1355       20482558.6121551    
1360       20489157.3638234    
1365       20505783.8951131    
1370       20532458.0298888    
1375       20569164.6942798    
1380       20615836.9023247    
1385       20672358.0304868    
1390       20738577.9736766    
1395       20814289.4943007    
1400       20899255.818702     
1405       20993193.2720166    
1410       21095781.6494696    
1415       21206667.3039851    
1420       21325463.6380109    
1425       21451755.3246582    
1430       21585101.4035618    
1435       21725037.384354     
1440       21871081.037816     
