TIME [s]   DISTANCE [m]   
0          28773635.7400585    
5          28727824.8046528    
10         28675611.1260102    
15         28616901.680407     
20         28551622.0078457    
25         28479715.9285001    
30         28401155.4479511    
35         28315926.2478992    
40         28224036.9693766    
45         28125511.2323557    
50         28020409.1106465    
55         27908790.7949741    
60         27790755.7037428    
65         27666407.830047     
70         27535887.0135767    
75         27399340.6688997    
80         27256947.0296069    
85         27108893.427163     
90         26955398.9638114    
95         26796691.53856      
100        26633027.7060636    
105        26464677.8799396    
110        26291932.7837538    
115        26115101.9538303    
120        25934512.5126574    
125        25750506.7527353    
130        25563448.1565145    
135        25373716.0499392    
140        25181706.5228163    
145        24987818.928529     
150        24792489.0022632    
155        24596143.2781027    
160        24399230.9303096    
165        24202218.0249093    
170        24005570.672743     
175        23809762.5381097    
180        23615285.9880537    
185        23422627.3819967    
190        23232276.5927929    
195        23044735.7054341    
200        22860499.8616901    
205        22680056.3014724    
210        22503899.054915     
215        22332508.0739911    
220        22166348.8819543    
225        22005888.4647879    
230        21851567.0198825    
235        21703812.5350914    
240        21563030.1810011    
245        21429603.4964361    
250        21303891.8484315    
255        21186216.2749113    
260        21076881.3626635    
265        20976150.0839173    
270        20884252.5278069    
275        20801373.7776812    
280        20727674.1247598    
285        20663263.685539     
290        20608214.8747765    
295        20562557.1367208    
300        20526280.6235941    
305        20499331.9628894    
310        20481619.0198432    
315        20473006.8267947    
320        20473327.6365712    
325        20482373.4656415    
330        20499903.4620325    
335        20525642.8959543    
340        20559291.083276     
345        20600519.0438027    
350        20648976.4075614    
355        20704285.8704787    
360        20766062.128672     
365        20833899.3635708    
370        20907384.1295126    
375        20986091.6379457    
380        21069595.7982969    
385        21157466.1051286    
390        21249273.1332714    
395        21344590.9591266    
400        21443002.0107346    
405        21544087.4114954    
410        21647445.7941573    
415        21752689.226308     
420        21859437.4149516    
425        21967331.3671372    
430        22076017.3383327    
435        22185175.7789259    
440        22294487.3996964    
445        22403665.7592151    
450        22512441.8102446    
455        22620559.1970011    
460        22727796.5812595    
465        22833939.2289849    
470        22938804.7839184    
475        23042230.3595375    
480        23144073.8337502    
485        23244216.0010563    
490        23342560.2808458    
495        23439028.6890185    
500        23533566.1150236    
505        23626142.9506416    
510        23716742.441609     
515        23805375.0002015    
520        23892068.4822179    
525        23976865.4195187    
530        24059831.6457237    
535        24141050.7668161    
540        24220620.0206442    
545        24298657.2208501    
550        24375285.8190466    
555        24450652.5450107    
560        24524910.8954417    
565        24598233.9766218    
570        24670797.6336531    
575        24742790.1679175    
580        24814410.2576582    
585        24885852.2778607    
590        24957332.845126     
595        25029061.4282729    
600        25101254.7209933    
605        25174123.9652622    
610        25247889.1129539    
615        25322761.974049     
620        25398954.392396     
625        25476673.9484717    
630        25556114.3176945    
635        25637472.9342801    
640        25720931.2760337    
645        25806664.8321648    
650        25894828.2877315    
655        25985577.3062526    
660        26079040.8487659    
665        26175340.9070017    
670        26274582.606289     
675        26376845.8822981    
680        26482207.8822019    
685        26590709.9394718    
690        26702394.4048412    
695        26817262.5458207    
700        26935319.4497314    
705        27056526.9302524    
710        27180848.0100917    
715        27308214.4949542    
720        27438538.8750634    
725        27571720.9403702    
730        27707637.2537193    
735        27846147.4427624    
740        27987094.9472491    
745        28130303.9924763    
750        28275586.5442592    
755        28422736.7440722    
760        28571538.7053266    
765        28721754.0888417    
770        28873147.456799     
775        29025458.9845473    
780        29178430.3833439    
785        29331783.2802563    
790        29485240.6630645    
795        29638518.6967977    
800        29791326.6913278    
805        29943363.5943334    
810        30094338.508499     
815        30243950.9989053    
820        30391902.6652654    
825        30537887.3619905    
830        30681617.8415977    
835        30822790.3945956    
840        30961120.1305149    
845        31096318.8797654    
850        31228101.7527442    
855        31356199.3519682    
860        31480339.8710004    
865        31600265.6224928    
870        31715727.2618524    
875        31826477.2288687    
880        31932290.1516523    
885        32032943.6336341    
890        32128228.7843683    
895        32217946.809523     
900        32301915.8159495    
905        32379960.6219758    
910        32451925.3001193    
915        32517664.9853477    
920        32577051.4509254    
925        32629964.7090839    
930        32676308.9176095    
935        32716001.0113898    
940        32748963.6925462    
945        32775148.1570706    
950        32794518.7564002    
955        32807054.7751607    
960        32812748.2059271    
965        32811608.7823021    
970        32803673.349839     
975        32788978.7531736    
980        32767591.9555683    
985        32739593.456838     
990        32705070.7633311    
995        32664144.1300954    
1000       32616939.7012226    
1005       32563601.3939518    
1010       32504293.0407177    
1015       32439193.7481852    
1020       32368489.3375095    
1025       32292396.6088492    
1030       32211137.5527104    
1035       32124951.7901602    
1040       32034091.0644276    
1045       31938824.9356393    
1050       31839432.2785363    
1055       31736208.6496841    
1060       31629457.7819337    
1065       31519498.8565213    
1070       31406657.3281914    
1075       31291272.7065845    
1080       31173691.3633912    
1085       31054266.9599567    
1090       30933360.8571243    
1095       30811338.1833148    
1100       30688573.6287333    
1105       30565439.5639912    
1110       30442315.026541     
1115       30319573.9202229    
1120       30197595.3232983    
1125       30076752.2382463    
1130       29957415.1024589    
1135       29839946.4494632    
1140       29724703.7332725    
1145       29612035.9506067    
1150       29502279.5623046    
1155       29395762.671855     
1160       29292787.0265172    
1165       29193656.7066673    
1170       29098648.3066345    
1175       29008014.5114293    
1180       28921997.989233     
1185       28840811.1325745    
1190       28764648.271903     
1195       28693678.7036071    
1200       28628043.711128     
1205       28567856.7626665    
1210       28513206.0644304    
1215       28464152.2318771    
1220       28420727.9366283    
1225       28382927.7246916    
1230       28350731.9590455    
1235       28324081.0597286    
1240       28302891.8174075    
1245       28287051.4204923    
1250       28276413.7829489    
1255       28270818.712778     
1260       28270069.5801876    
1265       28273946.3165362    
1270       28282213.2199001    
1275       28294602.891949     
1280       28310834.1564914    
1285       28330604.503547     
1290       28353592.4717248    
1295       28379465.8161923    
1300       28407875.1220417    
1305       28438461.8082237    
1310       28470852.4583988    
1315       28504673.4753919    
1320       28539536.6471971    
1325       28575058.08219      
1330       28610839.6825429    
1335       28646496.1974835    
1340       28681630.5890237    
1345       28715859.7795784    
1350       28748790.4018926    
1355       28780049.5840307    
1360       28809259.2375161    
1365       28836057.2676655    
1370       28860084.196667     
1375       28880997.1812411    
1380       28898460.2398667    
1385       28912153.0889921    
1390       28921763.4249185    
1395       28927000.6902415    
1400       28927587.3649156    
1405       28923257.4341493    
1410       28913761.7287969    
1415       28898875.933264     
1420       28878384.6700994    
1425       28852096.7512016    
1430       28819837.0149072    
1435       28781444.6104851    
1440       28736787.1326263    
