TIME [s]   DISTANCE [m]   
0          26312535.8437137    
5          26278008.3444319    
10         26250634.9323098    
15         26230259.0524372    
20         26216689.3862191    
25         26209705.1827565    
30         26209044.2064172    
35         26214428.497894     
40         26225542.9966322    
45         26242049.7841158    
50         26263586.1176161    
55         26289769.683544     
60         26320198.2684145    
65         26354454.0727042    
70         26392105.5774782    
75         26432707.2178216    
80         26475804.3894786    
85         26520943.4378999    
90         26567654.8315033    
95         26615479.1000543    
100        26663947.6145563    
105        26712599.0023957    
110        26760972.4040005    
115        26808619.0494225    
120        26855086.5541173    
125        26899947.9768244    
130        26942775.1336393    
135        26983153.0078354    
140        27020687.984155     
145        27054997.2538447    
150        27085707.5075156    
155        27112468.3388722    
160        27134950.5070165    
165        27152837.7763309    
170        27165832.9917818    
175        27173657.4439434    
180        27176058.8735919    
185        27172800.9635377    
190        27163669.5212717    
195        27148469.8279688    
200        27127031.9095964    
205        27099206.5392847    
210        27064866.7291822    
215        27023906.7632192    
220        26976245.1118663    
225        26921822.5688061    
230        26860599.0151627    
235        26792563.4179134    
240        26717721.8080168    
245        26636104.2362619    
250        26547766.183908     
255        26452782.8562737    
260        26351253.0679251    
265        26243299.1598503    
270        26129064.0712764    
275        26008715.7189057    
280        25882437.2896276    
285        25750444.5222471    
290        25612968.9467967    
295        25470263.8493513    
300        25322603.474139     
305        25170287.5779782    
310        25013634.1771418    
315        24852984.8508703    
320        24688689.2321898    
325        24521136.2041836    
330        24350719.4209273    
335        24177859.9224551    
340        24002988.0743936    
345        23826558.3577105    
350        23649042.0781846    
355        23470922.7754018    
360        23292699.8768536    
365        23114885.7434754    
370        22938005.3892584    
375        22762590.9735511    
380        22589188.2341859    
385        22418346.0239714    
390        22250616.8129673    
395        22086559.5653818    
400        21926727.5773905    
405        21771675.5837481    
410        21621951.9370647    
415        21478090.0849438    
420        21340620.2908495    
425        21210052.7411996    
430        21086879.2010775    
435        20971571.9550478    
440        20864567.8162401    
445        20766290.0873941    
450        20677116.2886481    
455        20597394.9380491    
460        20527435.6762175    
465        20467502.9556323    
470        20417823.0756202    
475        20378567.2708875    
480        20349869.1131496    
485        20331814.3620603    
490        20324424.4809888    
495        20327694.3020385    
500        20341545.1720639    
505        20365872.4499994    
510        20400513.9901158    
515        20445256.5940262    
520        20499857.7377929    
525        20564027.379955     
530        20637442.6963809    
535        20719737.3318681    
540        20810526.6758634    
545        20909394.616949     
550        21015898.9083925    
555        21129582.0288384    
560        21249968.8918507    
565        21376572.9650064    
570        21508898.1631207    
575        21646446.2173032    
580        21788708.1898644    
585        21935189.8568423    
590        22085388.8982093    
595        22238809.8541011    
600        22394978.3063482    
605        22553414.8459857    
610        22713662.7292316    
615        22875277.1660762    
620        23037829.0019697    
625        23200907.0216981    
630        23364116.5704339    
635        23527087.1959344    
640        23689461.454605     
645        23850911.579405     
650        24011125.2898554    
655        24169814.8391805    
660        24326714.3916635    
665        24481581.0052728    
670        24634195.6509058    
675        24784357.910151     
680        24931889.9891689    
685        25076646.2531106    
690        25218494.4143903    
695        25357324.4540332    
700        25493050.7592911    
705        25625612.2486832    
710        25754955.6835278    
715        25881066.0981564    
720        26003936.3875667    
725        26123582.8613829    
730        26240035.0434637    
735        26353351.1544602    
740        26463590.65353      
745        26570845.3900362    
750        26675211.4875177    
755        26776803.3794347    
760        26875748.2468974    
765        26972187.8839687    
770        27066268.9486101    
775        27158155.434327     
780        27248015.100147     
785        27336029.1384618    
790        27422381.3395634    
795        27507261.8372329    
800        27590861.9266632    
805        27673386.0692914    
810        27755024.0405381    
815        27835983.8304003    
820        27916460.0136504    
825        27996652.5654181    
830        28076748.0401209    
835        28156940.5539715    
840        28237415.2820339    
845        28318338.3913237    
850        28399886.8825705    
855        28482215.924818     
860        28565471.769948     
865        28649789.1315319    
870        28735294.9621835    
875        28822100.0444188    
880        28910300.754246     
885        28999979.3130555    
890        29091204.6795867    
895        29184022.4373223    
900        29278472.9347484    
905        29374573.0582856    
910        29472321.9016401    
915        29571708.8955006    
920        29672700.2293893    
925        29775244.6797997    
930        29879280.02876      
935        29984723.1175496    
940        30091478.4894694    
945        30199426.7103746    
950        30308442.0196931    
955        30418384.1512509    
960        30529088.4774806    
965        30640394.4960334    
970        30752110.5152795    
975        30864047.9716026    
980        30975999.3385397    
985        31087752.1586365    
990        31199079.5784543    
995        31309748.6334587    
1000       31419523.922909     
1005       31528162.9967067    
1010       31635407.2583421    
1015       31741011.4248718    
1020       31844716.5721969    
1025       31946260.1680045    
1030       32045389.0087206    
1035       32141834.2696684    
1040       32235346.6641557    
1045       32325659.4552003    
1050       32412524.8045033    
1055       32495689.9354594    
1060       32574909.7210216    
1065       32649937.1498831    
1070       32720540.5373462    
1075       32786491.2531188    
1080       32847571.2816314    
1085       32903564.5195444    
1090       32954267.5047297    
1095       32999489.9704596    
1100       33039044.8267878    
1105       33072757.6749464    
1110       33100476.9134675    
1115       33122044.9626053    
1120       33137328.9488995    
1125       33146204.054585     
1130       33148566.1476849    
1135       33144314.5013961    
1140       33133370.5453455    
1145       33115671.0065596    
1150       33091162.2183348    
1155       33059806.2671274    
1160       33021590.8390007    
1165       32976510.8116982    
1170       32924580.3062105    
1175       32865830.9881709    
1180       32800307.4797356    
1185       32728078.1588498    
1190       32649226.2169365    
1195       32563849.6884777    
1200       32472062.0029589    
1205       32374006.4080214    
1210       32269832.5070048    
1215       32159708.098906     
1220       32043828.3305348    
1225       31922391.5799437    
1230       31795626.51206      
1235       31663772.4330846    
1240       31527087.1333135    
1245       31385845.037236     
1250       31240338.6672009    
1255       31090868.8917341    
1260       30937764.9614361    
1265       30781360.1758357    
1270       30622008.6439692    
1275       30460074.3676115    
1280       30295931.397509     
1285       30129976.358798     
1290       29962606.1874162    
1295       29794226.7530349    
1300       29625266.2102229    
1305       29456142.4799922    
1310       29287292.9708649    
1315       29119152.0743766    
1320       28952161.2820062    
1325       28786755.3673029    
1330       28623377.6287693    
1335       28462466.2851385    
1340       28304446.9279641    
1345       28149752.8295807    
1350       27998790.5570458    
1355       27851972.9137105    
1360       27709688.5357187    
1365       27572307.8603062    
1370       27440195.3580911    
1375       27313684.8134946    
1380       27193091.9241455    
1385       27078702.9442109    
1390       26970783.1290323    
1395       26869566.3516107    
1400       26775256.0433325    
1405       26688023.6625279    
1410       26608007.2587349    
1415       26535310.1306169    
1420       26469999.7494674    
1425       26412108.2034354    
1430       26361629.4441586    
1435       26318522.303903     
1440       26282707.6713134    
