TIME [s]   DISTANCE [m]   
0          25069001.5530299    
5          25267562.059693     
10         25466562.9706246    
15         25665555.0862015    
20         25864121.2762154    
25         26061847.2827458    
30         26258337.7593855    
35         26453217.740638     
40         26646126.4851954    
45         26836729.1869186    
50         27024703.859261     
55         27209748.1575011    
60         27391582.8049553    
65         27569945.233183     
70         27744592.8663454    
75         27915307.7914231    
80         28081885.4633451    
85         28244148.8714388    
90         28401929.0267864    
95         28555092.7957898    
100        28703519.0824103    
105        28847096.0065517    
110        28985750.0145946    
115        29119413.7147897    
120        29248042.7058091    
125        29371607.8659939    
130        29490096.8636714    
135        29603522.0072713    
140        29711905.6229861    
145        29815288.9059407    
150        29913724.2919657    
155        30007291.2298453    
160        30096068.2913716    
165        30180155.1207585    
170        30259670.5633245    
175        30334736.9611119    
180        30405493.5101988    
185        30472086.741919     
190        30534677.891597     
195        30593431.1970919    
200        30648528.0212686    
205        30700147.1907587    
210        30748484.0087153    
215        30793735.9166368    
220        30836096.2362596    
225        30875776.9768118    
230        30912985.1291808    
235        30947928.9500312    
240        30980821.3872766    
245        31011866.4557386    
250        31041273.064621     
255        31069251.8803602    
260        31096002.0711506    
265        31121720.6125029    
270        31146600.0629208    
275        31170825.9745314    
280        31194574.5580044    
285        31218016.8739651    
290        31241308.5774933    
295        31264603.1122196    
300        31288037.752977     
305        31311731.8731635    
310        31335806.9547033    
315        31360362.3934134    
320        31385477.0405312    
325        31411230.1254898    
330        31437673.3658787    
335        31464852.8687084    
340        31492793.1776859    
345        31521505.0136909    
350        31550984.0936969    
355        31581211.1180344    
360        31612143.362099     
365        31643738.4336905    
370        31675925.2314349    
375        31708620.4102858    
380        31741731.5184613    
385        31775148.8560738    
390        31808745.2627756    
395        31842389.9741384    
400        31875928.6868327    
405        31909208.0034755    
410        31942052.5384009    
415        31974287.156835     
420        32005719.9943553    
425        32036155.2698007    
430        32065391.2974942    
435        32093214.3234032    
440        32119416.2727747    
445        32143770.0785129    
450        32166059.5670725    
455        32186059.0889536    
460        32203545.2655711    
465        32218292.8581246    
470        32230076.4278062    
475        32238676.1014295    
480        32243871.0967954    
485        32245448.1749548    
490        32243194.4669243    
495        32236908.1930035    
500        32226388.329473     
505        32211446.6417261    
510        32191899.2432527    
515        32167573.5204628    
520        32138306.5284543    
525        32103944.1271791    
530        32064344.3315208    
535        32019378.1102186    
540        31968925.0066757    
545        31912886.7106941    
550        31851166.3634149    
555        31783691.9840671    
560        31710401.8869862    
565        31631250.4198643    
570        31546201.547125     
575        31455245.2991427    
580        31358384.99288      
585        31255637.2099129    
590        31147036.2422901    
595        31032637.9032976    
600        30912513.5423016    
605        30786751.399992     
610        30655454.6623194    
615        30518752.4970099    
620        30376786.8152502    
625        30229719.3744396    
630        30077730.4287099    
635        29921014.4337765    
640        29759792.2266568    
645        29594296.5076112    
650        29424777.606623     
655        29251507.4452926    
660        29074772.8440498    
665        28894878.0498772    
670        28712143.667426     
675        28526906.8154992    
680        28339519.9357936    
685        28150349.9439669    
690        27959778.2209877    
695        27768202.4747446    
700        27576020.28008      
705        27383661.4355076    
710        27191542.6124184    
715        27000108.9840555    
720        26809801.2786043    
725        26621069.8681902    
730        26434368.1076875    
735        26250153.0613751    
740        26068879.4447179    
745        25891003.535536     
750        25716977.518608     
755        25547246.039028     
760        25382242.7261139    
765        25222391.8332284    
770        25068111.8039286    
775        24919796.3257473    
780        24777822.9444376    
785        24642544.814819     
790        24514299.9387634    
795        24393391.8918438    
800        24280098.371077     
805        24174664.3915415    
810        24077310.0314332    
815        23988210.1660019    
820        23907510.2585198    
825        23835312.202561     
830        23771680.789989     
835        23716647.7460832    
840        23670197.3649045    
845        23632273.0278659    
850        23602782.0890096    
855        23581590.326312     
860        23568525.0178083    
865        23563375.8041269    
870        23565897.9980634    
875        23575808.2932624    
880        23592797.4602807    
885        23616516.8620528    
890        23646602.7987386    
895        23682659.4297164    
900        23724268.5017487    
905        23770992.4463564    
910        23822378.2985042    
915        23877958.8614455    
920        23937256.896648     
925        23999784.2821854    
930        24065048.1884177    
935        24132550.6954613    
940        24201796.1745594    
945        24272292.6845072    
950        24343544.1917939    
955        24415070.0118912    
960        24486388.1288765    
965        24557035.100553     
970        24626551.8727554    
975        24694497.5983867    
980        24760439.641451     
985        24823967.4112972    
990        24884681.3748212    
995        24942205.8882309    
1000       24996179.6623342    
1005       25046263.4166247    
1010       25092134.1220804    
1015       25133494.0707302    
1020       25170068.543066     
1025       25201599.651177     
1030       25227859.3115311    
1035       25248629.1200958    
1040       25263732.4197655    
1045       25273003.9255993    
1050       25276306.6659686    
1055       25273524.6112       
1060       25264573.3318453    
1065       25249379.3545498    
1070       25227910.7997043    
1075       25200149.7420371    
1080       25166107.3488462    
1085       25125815.9845362    
1090       25079337.2267283    
1095       25026757.2473796    
1100       24968183.9734944    
1105       24903750.6617326    
1110       24833620.2472098    
1115       24757977.4070243    
1120       24677027.7795226    
1125       24591007.8857548    
1130       24500174.6011049    
1135       24404811.531779     
1140       24305216.2805435    
1145       24201726.7145874    
1150       24094685.1590845    
1155       23984469.0074841    
1160       23871475.0358665    
1165       23756112.4661503    
1170       23638818.56534      
1175       23520043.6776657    
1180       23400267.3272159    
1185       23279968.5983044    
1190       23159658.8191825    
1195       23039843.2884754    
1200       22921061.8779843    
1205       22803840.3594826    
1210       22688733.9075012    
1215       22576289.9005336    
1220       22467060.1673302    
1225       22361601.034406     
1230       22260464.6027792    
1235       22164191.4834658    
1240       22073326.3336822    
1245       21988386.3055334    
1250       21909884.5447322    
1255       21838306.8671232    
1260       21774127.4403065    
1265       21717786.217696     
1270       21669694.6984201    
1275       21630234.2821673    
1280       21599752.1948296    
1285       21578547.744621     
1290       21566896.9731442    
1295       21565010.9421112    
1300       21573079.6148231    
1305       21591222.7821585    
1310       21619531.1902833    
1315       21658040.4792095    
1320       21706737.9846629    
1325       21765563.4793669    
1330       21834413.4259442    
1335       21913133.4063624    
1340       22001528.499901     
1345       22099361.0515156    
1350       22206359.2229263    
1355       22322211.6944501    
1360       22446565.6042255    
1365       22579051.0355768    
1370       22719264.5567736    
1375       22866776.7640952    
1380       23021141.7422271    
1385       23181894.2783557    
1390       23348557.8296373    
1395       23520637.5822892    
1400       23697640.3516131    
1405       23879064.6000385    
1410       24064403.5303239    
1415       24253155.4294449    
1420       24444815.181187     
1425       24638892.108044     
1430       24834895.6251876    
1435       25032345.6872604    
1440       25230775.0422744    
