TIME [s]   DISTANCE [m]   
0          27890791.2665754    
5          27937741.1404925    
10         27986282.9490789    
15         28036666.7064118    
20         28089123.2551558    
25         28143854.8546854    
30         28201052.1656198    
35         28260874.3217234    
40         28323452.2575398    
45         28388906.4410071    
50         28457310.0071584    
55         28528721.7365259    
60         28603166.2048408    
65         28680647.3922729    
70         28761135.536043     
75         28844564.2829475    
80         28930854.9480073    
85         29019894.1923405    
90         29111535.4410716    
95         29205619.7475094    
100        29301947.9888929    
105        29400305.7686227    
110        29500461.5606016    
115        29602144.9940564    
120        29705085.028532     
125        29808982.4632748    
130        29913519.5784163    
135        30018366.2967249    
140        30123182.0769278    
145        30227614.6862009    
150        30331301.1443852    
155        30433863.7065727    
160        30534933.2088534    
165        30634122.8770852    
170        30731047.2559738    
175        30825325.699728     
180        30916573.2065151    
185        31004407.813529     
190        31088452.9732577    
195        31168335.4442091    
200        31243692.6373746    
205        31314165.9830362    
210        31379411.7605215    
215        31439093.3904319    
220        31492889.5928478    
225        31540491.7234713    
230        31581598.4363852    
235        31615938.1022626    
240        31643244.8855363    
245        31663276.1237844    
250        31675801.3014805    
255        31680614.7249246    
260        31677529.2917007    
265        31666378.6953668    
270        31647012.7649241    
275        31619312.6640846    
280        31583173.7860209    
285        31538514.5518255    
290        31485283.0625987    
295        31423449.8935452    
300        31353000.5687708    
305        31273959.210652     
310        31186364.9092126    
315        31090284.7032052    
320        30985808.9911493    
325        30873060.2975804    
330        30752180.3688806    
335        30623339.8433224    
340        30486732.160834     
345        30342582.907628     
350        30191136.9722416    
355        30032670.4007294    
360        29867482.0186686    
365        29695898.4120042    
370        29518268.6292162    
375        29334971.4204711    
380        29146408.7990343    
385        28953003.5973327    
390        28755203.7749945    
395        28553487.2853151    
400        28348345.3029339    
405        28140295.6699146    
410        27929875.8481883    
415        27717641.6443639    
420        27504167.7539491    
425        27290045.0086901    
430        27075875.4995385    
435        26862283.0365276    
440        26649890.4969139    
445        26439340.1189842    
450        26231268.7262069    
455        26026327.9261146    
460        25825158.2745755    
465        25628404.3930023    
470        25436700.3533121    
475        25250668.8666612    
480        25070919.781667     
485        24898045.507531     
490        24732606.8316189    
495        24575151.0520576    
500        24426182.6143089    
505        24286176.5998827    
510        24155564.8237013    
515        24034735.6681934    
520        23924031.0724446    
525        23823736.1077109    
530        23734092.4106456    
535        23655273.4429352    
540        23587401.18875      
545        23530536.9548162    
550        23484668.2266693    
555        23449738.4676272    
560        23425617.7741728    
565        23412119.5524496    
570        23408995.0787742    
575        23415939.2927893    
580        23432595.4067442    
585        23458553.7041731    
590        23493351.5813188    
595        23536494.3143197    
600        23587431.3489586    
605        23645592.9710406    
610        23710369.185633     
615        23781126.6469996    
620        23857208.9243276    
625        23937946.9349553    
630        24022651.1026262    
635        24110633.5791307    
640        24201195.9789466    
645        24293640.8592548    
650        24387276.2627744    
655        24481413.597639     
660        24575378.4201       
665        24668506.3218716    
670        24760151.1441177    
675        24849679.459337     
680        24936486.3159422    
685        25019975.6329303    
690        25099592.4510261    
695        25174791.0539721    
700        25245063.9991491    
705        25309920.1404786    
710        25368910.0768934    
715        25421605.3457927    
720        25467612.3691734    
725        25506559.1812522    
730        25538119.2577924    
735        25561990.5779558    
740        25577905.3531531    
745        25585625.6755981    
750        25584950.1607566    
755        25575712.4003883    
760        25557774.5376579    
765        25531040.3284855    
770        25495438.1909746    
775        25450936.6394082    
780        25397541.8261892    
785        25335283.0069993    
790        25264236.8268783    
795        25184507.8826444    
800        25096237.2195577    
805        24999598.2146965    
810        24894800.5468788    
815        24782092.9302022    
820        24661752.8647473    
825        24534096.3828392    
830        24399474.9158099    
835        24258265.1475371    
840        24110894.1774517    
845        23957811.0989444    
850        23799505.0894203    
855        23636494.6127969    
860        23469335.0938831    
865        23298610.5605694    
870        23124942.0392722    
875        22948969.8887136    
880        22771378.1153727    
885        22592869.7963202    
890        22414175.2132717    
895        22236048.2023223    
900        22059267.2061112    
905        21884626.4032521    
910        21712935.9107559    
915        21545020.0148847    
920        21381707.3754035    
925        21223836.6771282    
930        21072231.3780215    
935        20927726.8135587    
940        20791130.114858     
945        20663237.6197134    
950        20544816.6591812    
955        20436605.4968266    
960        20339300.8870978    
965        20253551.9598441    
970        20179960.5317189    
975        20119066.7657823    
980        20071346.1559417    
985        20037199.8583671    
990        20016961.6622675    
995        20010880.5455526    
1000       20019125.0538419    
1005       20041781.5959532    
1010       20078853.4652941    
1015       20130250.7420395    
1020       20195815.4280956    
1025       20275300.7614315    
1030       20368386.9253619    
1035       20474682.1463939    
1040       20593727.7402371    
1045       20725007.7302942    
1050       20867944.2691259    
1055       21021924.529054     
1060       21186283.6966652    
1065       21360325.7864981    
1070       21543335.1200113    
1075       21734565.155469     
1080       21933255.3465658    
1085       22138643.4029436    
1090       22349958.7184179    
1095       22566429.9245908    
1100       22787294.5889508    
1105       23011799.2169483    
1110       23239204.6041013    
1115       23468783.7738764    
1120       23699829.8299062    
1125       23931668.0449855    
1130       24163628.4098557    
1135       24395083.5678092    
1140       24625420.4303576    
1145       24854062.6141998    
1150       25080457.8493138    
1155       25304085.4178403    
1160       25524450.3161335    
1165       25741093.6617391    
1170       25953586.5524655    
1175       26161522.2621992    
1180       26364539.0925919    
1185       26562293.9897456    
1190       26754482.6305949    
1195       26940827.8765727    
1200       27121084.5344331    
1205       27295032.3053293    
1210       27462489.6873861    
1215       27623293.1549064    
1220       27777321.0700212    
1225       27924467.9589565    
1230       28064666.5769102    
1235       28197873.5951332    
1240       28324064.4826685    
1245       28443255.6753123    
1250       28555479.5541017    
1255       28660794.1022635    
1260       28759285.6636348    
1265       28851063.8155719    
1270       28936250.0198224    
1275       29015005.211433     
1280       29087499.5670919    
1285       29153926.374741     
1290       29214496.6035213    
1295       29269441.362513     
1300       29319009.1716291    
1305       29363455.278631     
1310       29403062.6187256    
1315       29438119.172892     
1320       29468924.8895612    
1325       29495791.4029239    
1330       29519038.9659441    
1335       29538993.0113978    
1340       29555989.9933834    
1345       29570356.9167041    
1350       29582440.7913391    
1355       29592576.5112516    
1360       29601101.9827798    
1365       29608353.9325815    
1370       29614651.896668     
1375       29620328.9066407    
1380       29625689.9300645    
1385       29631041.2294772    
1390       29636674.0009893    
1395       29642863.8890975    
1400       29649871.7730468    
1405       29657942.1986018    
1410       29667296.3549037    
1415       29678142.6193663    
1420       29690663.2978596    
1425       29705020.3742611    
1430       29721345.6665556    
1435       29739755.8921209    
1440       29760337.7778809    
