TIME [s]   DISTANCE [m]   
0          27835259.181541     
5          27985267.456798     
10         28126349.0699527    
15         28258311.6663346    
20         28380994.2480246    
25         28494255.3916679    
30         28597996.5040735    
35         28692144.6231541    
40         28776647.8053512    
45         28851496.0671183    
50         28916702.7720076    
55         28972309.9197017    
60         29018389.625902     
65         29055046.5261478    
70         29082409.0050946    
75         29100635.6888769    
80         29109923.0686175    
85         29110479.2501559    
90         29102556.6694916    
95         29086426.8385583    
100        29062385.8819512    
105        29030766.4690569    
110        28991921.7323461    
115        28946228.5984815    
120        28894088.5540036    
125        28835935.8124793    
130        28772219.0309226    
135        28703411.397268     
140        28630008.0597083    
145        28552519.8494144    
150        28471481.9846844    
155        28387441.4860017    
160        28300961.8780754    
165        28212616.8036669    
170        28122995.8592192    
175        28032694.5843336    
180        27942315.517501     
185        27852459.6201669    
190        27763738.6129876    
195        27676754.4853739    
200        27592104.5941568    
205        27510378.9053142    
210        27432163.4831728    
215        27358019.7931788    
220        27288490.1064786    
225        27224106.6732724    
230        27165365.7712356    
235        27112742.7380585    
240        27066671.1039331    
245        27027558.3583062    
250        26995770.7014463    
255        26971639.9411407    
260        26955441.028976     
265        26947418.0352375    
270        26947759.7776149    
275        26956607.9623267    
280        26974054.060868     
285        27000141.2086675    
290        27034859.0933926    
295        27078151.0055997    
300        27129901.8442795    
305        27189955.6771373    
310        27258107.8015074    
315        27334106.1574799    
320        27417655.3478917    
325        27508419.1053881    
330        27606023.2984984    
335        27710053.6939109    
340        27820070.4256935    
345        27935599.3431037    
350        28056142.8681398    
355        28181180.0436556    
360        28310169.044969     
365        28442553.0054482    
370        28577764.6640781    
375        28715219.289818     
380        28854335.5361081    
385        28994517.634489     
390        29135181.4143007    
395        29275734.8125268    
400        29415596.1677544    
405        29554180.4940859    
410        29690920.2955633    
415        29825260.3730688    
420        29956655.7335092    
425        30084564.8014998    
430        30208483.7704316    
435        30327902.3423032    
440        30442348.0312693    
445        30551359.9514382    
450        30654493.8324276    
455        30751333.7004008    
460        30841484.9740381    
465        30924573.9261973    
470        31000252.1703413    
475        31068197.7428581    
480        31128104.4690885    
485        31179703.9807761    
490        31222746.2876622    
495        31257004.6205654    
500        31282288.1173843    
505        31298423.6988628    
510        31305267.5669983    
515        31302703.3102245    
520        31290638.702979     
525        31269009.8356567    
530        31237779.9497178    
535        31196936.2407744    
540        31146494.5746574    
545        31086497.4368196    
550        31017010.5610228    
555        30938132.2312695    
560        30849973.3250302    
565        30752683.4603863    
570        30646434.3178693    
575        30531421.4131983    
580        30407857.6117135    
585        30275990.9707301    
590        30136089.9044709    
595        29988445.3125414    
600        29833364.7607212    
605        29671185.5294657    
610        29502267.3273892    
615        29326988.6977581    
620        29145739.8636136    
625        28958942.4816203    
630        28767031.482302     
635        28570457.3368801    
640        28369690.3753893    
645        28165213.7473058    
650        27957525.8184114    
655        27747131.7763235    
660        27534555.5723508    
665        27320328.7612812    
670        27104989.1409267    
675        26889076.7568359    
680        26673144.8085285    
685        26457737.4379517    
690        26243407.2646896    
695        26030703.5960654    
700        25820159.9745047    
705        25612315.2815493    
710        25407695.4326804    
715        25206802.6911403    
720        25010138.8682548    
725        24818175.8692494    
730        24631368.7185108    
735        24450146.3411974    
740        24274911.198101     
745        24106034.9229011    
750        23943856.4541843    
755        23788680.6557796    
760        23640776.5672944    
765        23500365.8129222    
770        23367635.6740788    
775        23242732.8237397    
780        23125756.7264834    
785        23016756.2478143    
790        22915744.5198572    
795        22822688.4491723    
800        22737508.5950316    
805        22660076.7013656    
810        22590231.5853083    
815        22527764.0750011    
820        22472433.1423605    
825        22423953.6556931    
830        22382015.5872828    
835        22346264.9453624    
840        22316336.7193585    
845        22291832.1778257    
850        22272329.4083543    
855        22257398.551084     
860        22246584.7898112    
865        22239433.7255191    
870        22235477.0949991    
875        22234245.4577023    
880        22235275.9213791    
885        22238095.1257869    
890        22242251.3376998    
895        22247294.8873123    
900        22252789.596943     
905        22258317.930897     
910        22263467.218007     
915        22267863.8884836    
920        22271143.2756208    
925        22272965.3388641    
930        22273020.990116     
935        22271027.2182858    
940        22266720.0267897    
945        22259875.9149069    
950        22250302.0094899    
955        22237831.2518867    
960        22222331.9772011    
965        22203706.9120659    
970        22181889.1087719    
975        22156849.8135361    
980        22128593.8997249    
985        22097161.981878     
990        22062620.1789191    
995        22025085.0054787    
1000       21984701.1268465    
1005       21941637.3320979    
1010       21896114.1112102    
1015       21848373.6103464    
1020       21798694.1402529    
1025       21747387.8187191    
1030       21694788.7237117    
1035       21641273.3924664    
1040       21587237.7996945    
1045       21533107.2427816    
1050       21479328.9817589    
1055       21426376.1542597    
1060       21374742.5524629    
1065       21324929.7147985    
1070       21277468.8636674    
1075       21232892.6596253    
1080       21191747.2831939    
1085       21154571.9494104    
1090       21121926.241652     
1095       21094345.7790821    
1100       21072373.1146941    
1105       21056536.9559438    
1110       21047337.8937591    
1115       21045272.8430929    
1120       21050801.74095      
1125       21064360.0479762    
1130       21086349.3516684    
1135       21117125.3731993    
1140       21157017.2714945    
1145       21206298.8666102    
1150       21265196.6370068    
1155       21333892.958897     
1160       21412512.4969389    
1165       21501129.5515528    
1170       21599763.7327851    
1175       21708373.2237326    
1180       21826875.2553551    
1185       21955123.9065338    
1190       22092922.9992416    
1195       22240027.6365157    
1200       22396144.6008799    
1205       22560927.9206755    
1210       22734006.69798      
1215       22914948.1010609    
1220       23103306.9199338    
1225       23298585.0473584    
1230       23500269.8807665    
1235       23707818.6469382    
1240       23920667.8117959    
1245       24138231.4399608    
1250       24359920.3729486    
1255       24585124.7717448    
1260       24813227.5588251    
1265       25043616.2792347    
1270       25275667.0717838    
1275       25508759.4084146    
1280       25742278.6609401    
1285       25975615.212072     
1290       26208167.456935     
1295       26439342.7062053    
1300       26668555.1411649    
1305       26895245.2209506    
1310       27118858.4036333    
1315       27338859.4859322    
1320       27554729.8255919    
1325       27765965.6372193    
1330       27972092.4437517    
1335       28172650.1299791    
1340       28367203.2546881    
1345       28555327.0766678    
1350       28736638.2736043    
1355       28910766.19833      
1360       29077360.9584596    
1365       29236107.9995196    
1370       29386706.8424497    
1375       29528891.9250025    
1380       29662416.2331147    
1385       29787060.2739888    
1390       29902636.5380902    
1395       30008975.0824414    
1400       30105943.1976224    
1405       30193424.2018474    
1410       30271338.2843059    
1415       30339627.0307799    
1420       30398263.2716669    
1425       30447244.2945725    
1430       30486597.7748051    
1435       30516376.347809     
1440       30536662.8847558    
